Wavelength	Excitation	Emission
250	0.279	0
250.5	0.289	0
251	0.297	0
251.5	0.304	0
252	0.31	0
252.5	0.314	0
253	0.318	0
253.5	0.32	0
254	0.32	0
254.5	0.32	0
255	0.318	0
255.5	0.315	0
256	0.31	0
256.5	0.304	0
257	0.295	0
257.5	0.286	0
258	0.277	0
258.5	0.266	0
259	0.254	0
259.5	0.24	0
260	0.227	0
260.5	0.212	0
261	0.198	0
261.5	0.184	0
262	0.17	0
262.5	0.158	0
263	0.148	0
263.5	0.139	0
264	0.13	0
264.5	0.122	0
265	0.115	0
265.5	0.109	0
266	0.104	0
266.5	0.1	0
267	0.096	0
267.5	0.094	0
268	0.091	0
268.5	0.089	0
269	0.086	0
269.5	0.086	0
270	0.087	0
270.5	0.086	0
271	0.086	0
271.5	0.087	0
272	0.088	0
272.5	0.088	0
273	0.09	0
273.5	0.091	0
274	0.093	0
274.5	0.095	0
275	0.097	0
275.5	0.098	0
276	0.099	0
276.5	0.101	0
277	0.103	0
277.5	0.104	0
278	0.105	0
278.5	0.108	0
279	0.108	0
279.5	0.109	0
280	0.109	0
280.5	0.109	0
281	0.109	0
281.5	0.109	0
282	0.109	0
282.5	0.11	0
283	0.11	0
283.5	0.111	0
284	0.11	0
284.5	0.111	0
285	0.11	0
285.5	0.11	0
286	0.109	0
286.5	0.108	0
287	0.107	0
287.5	0.107	0
288	0.107	0
288.5	0.107	0
289	0.107	0
289.5	0.107	0
290	0.106	0
290.5	0.107	0
291	0.106	0
291.5	0.105	0
292	0.105	0
292.5	0.104	0
293	0.104	0
293.5	0.104	0
294	0.103	0
294.5	0.104	0
295	0.103	0
295.5	0.103	0
296	0.103	0
296.5	0.103	0
297	0.102	0
297.5	0.102	0
298	0.101	0
298.5	0.1	0
299	0.1	0
299.5	0.099	0
300	0.098	0
300.5	0.098	0
301	0.097	0
301.5	0.095	0
302	0.095	0
302.5	0.094	0
303	0.093	0
303.5	0.092	0
304	0.091	0
304.5	0.09	0
305	0.088	0
305.5	0.087	0
306	0.085	0
306.5	0.084	0
307	0.082	0
307.5	0.08	0
308	0.078	0
308.5	0.077	0
309	0.075	0
309.5	0.073	0
310	0.071	0
310.5	0.069	0
311	0.067	0
311.5	0.065	0
312	0.063	0
312.5	0.06	0
313	0.058	0
313.5	0.056	0
314	0.055	0
314.5	0.052	0
315	0.051	0
315.5	0.049	0
316	0.047	0
316.5	0.045	0
317	0.044	0
317.5	0.042	0
318	0.041	0
318.5	0.04	0
319	0.039	0
319.5	0.038	0
320	0.037	0
320.5	0.036	0
321	0.035	0
321.5	0.035	0
322	0.034	0
322.5	0.033	0
323	0.033	0
323.5	0.032	0
324	0.031	0
324.5	0.03	0
325	0.03	0
325.5	0.029	0
326	0.028	0
326.5	0.027	0
327	0.027	0
327.5	0.026	0
328	0.025	0
328.5	0.025	0
329	0.024	0
329.5	0.024	0
330	0.023	0
330.5	0.023	0
331	0.023	0
331.5	0.023	0
332	0.023	0
332.5	0.023	0
333	0.023	0
333.5	0.023	0
334	0.024	0
334.5	0.025	0
335	0.026	0
335.5	0.027	0
336	0.028	0
336.5	0.028	0
337	0.029	0
337.5	0.03	0
338	0.031	0
338.5	0.031	0
339	0.032	0
339.5	0.032	0
340	0.033	0
340.5	0.033	0
341	0.034	0
341.5	0.034	0
342	0.034	0
342.5	0.035	0
343	0.035	0
343.5	0.035	0
344	0.035	0
344.5	0.036	0
345	0.036	0
345.5	0.036	0
346	0.036	0
346.5	0.037	0
347	0.038	0
347.5	0.038	0
348	0.038	0
348.5	0.039	0
349	0.04	0
349.5	0.04	0
350	0.041	0
350.5	0.042	0
351	0.043	0
351.5	0.044	0
352	0.045	0
352.5	0.046	0
353	0.048	0
353.5	0.049	0
354	0.051	0
354.5	0.053	0
355	0.054	0
355.5	0.055	0
356	0.056	0
356.5	0.056	0
357	0.057	0
357.5	0.057	0
358	0.058	0
358.5	0.059	0
359	0.058	0
359.5	0.058	0
360	0.058	0
360.5	0.058	0
361	0.057	0
361.5	0.055	0
362	0.054	0
362.5	0.053	0
363	0.052	0
363.5	0.05	0
364	0.049	0
364.5	0.048	0
365	0.047	0
365.5	0.045	0
366	0.044	0
366.5	0.043	0
367	0.041	0
367.5	0.039	0
368	0.037	0
368.5	0.036	0
369	0.035	0
369.5	0.034	0
370	0.033	0
370.5	0.032	0
371	0.031	0
371.5	0.03	0
372	0.029	0
372.5	0.027	0
373	0.026	0
373.5	0.025	0
374	0.024	0
374.5	0.024	0
375	0.023	0
375.5	0.023	0
376	0.023	0
376.5	0.023	0
377	0.022	0
377.5	0.021	0
378	0.021	0
378.5	0.019	0
379	0.018	0
379.5	0.018	0
380	0.017	0
380.5	0.017	0
381	0.016	0
381.5	0.016	0
382	0.015	0
382.5	0.015	0
383	0.014	0
383.5	0.014	0
384	0.014	0
384.5	0.013	0
385	0.013	0
385.5	0.014	0
386	0.014	0
386.5	0.015	0
387	0.016	0
387.5	0.016	0
388	0.016	0
388.5	0.016	0
389	0.016	0
389.5	0.016	0
390	0.016	0
390.5	0.016	0
391	0.015	0
391.5	0.015	0
392	0.015	0
392.5	0.016	0
393	0.016	0
393.5	0.016	0
394	0.016	0
394.5	0.016	0
395	0.016	0
395.5	0.016	0
396	0.016	0
396.5	0.017	0
397	0.017	0
397.5	0.017	0
398	0.017	0
398.5	0.017	0
399	0.017	0
399.5	0.017	0
400	0.017	0
400.5	0.017	0
401	0.017	0
401.5	0.017	0
402	0.018	0
402.5	0.018	0
403	0.017	0
403.5	0.017	0
404	0.018	0
404.5	0.018	0
405	0.018	0
405.5	0.018	0
406	0.018	0
406.5	0.018	0
407	0.018	0
407.5	0.018	0
408	0.018	0
408.5	0.017	0
409	0.017	0
409.5	0.017	0
410	0.017	0
410.5	0.017	0
411	0.017	0
411.5	0.017	0
412	0.016	0
412.5	0.016	0
413	0.016	0
413.5	0.016	0
414	0.016	0
414.5	0.016	0
415	0.015	0
415.5	0.015	0
416	0.015	0
416.5	0.015	0
417	0.015	0
417.5	0.015	0
418	0.015	0
418.5	0.014	0
419	0.014	0
419.5	0.014	0
420	0.014	0
420.5	0.014	0
421	0.014	0
421.5	0.014	0
422	0.013	0
422.5	0.013	0
423	0.013	0
423.5	0.013	0
424	0.013	0
424.5	0.013	0
425	0.013	0
425.5	0.013	0
426	0.013	0
426.5	0.013	0
427	0.013	0
427.5	0.013	0
428	0.013	0
428.5	0.013	0
429	0.013	0
429.5	0.013	0
430	0.013	0
430.5	0.013	0
431	0.012	0
431.5	0.013	0
432	0.013	0
432.5	0.013	0
433	0.013	0
433.5	0.012	0
434	0.013	0
434.5	0.013	0
435	0.013	0
435.5	0.013	0
436	0.013	0
436.5	0.013	0
437	0.013	0
437.5	0.013	0
438	0.013	0
438.5	0.013	0
439	0.014	0
439.5	0.014	0
440	0.014	0
440.5	0.014	0
441	0.014	0
441.5	0.014	0
442	0.014	0
442.5	0.014	0
443	0.014	0
443.5	0.014	0
444	0.014	0
444.5	0.014	0
445	0.015	0
445.5	0.015	0
446	0.014	0
446.5	0.015	0
447	0.015	0
447.5	0.015	0
448	0.015	0
448.5	0.016	0
449	0.016	0
449.5	0.016	0
450	0.017	0
450.5	0.017	0
451	0.017	0
451.5	0.017	0
452	0.017	0
452.5	0.018	0
453	0.018	0
453.5	0.019	0
454	0.019	0
454.5	0.02	0
455	0.02	0
455.5	0.021	0
456	0.021	0
456.5	0.022	0
457	0.022	0
457.5	0.023	0
458	0.023	0
458.5	0.024	0
459	0.024	0
459.5	0.025	0
460	0.026	0
460.5	0.026	0
461	0.027	0
461.5	0.027	0
462	0.028	0
462.5	0.029	0
463	0.029	0
463.5	0.03	0
464	0.031	0
464.5	0.032	0
465	0.033	0
465.5	0.034	0
466	0.034	0
466.5	0.035	0
467	0.036	0
467.5	0.037	0
468	0.038	0
468.5	0.039	0
469	0.04	0
469.5	0.041	0
470	0.042	0
470.5	0.043	0
471	0.044	0
471.5	0.045	0
472	0.046	0
472.5	0.047	0
473	0.048	0
473.5	0.05	0
474	0.051	0
474.5	0.052	0
475	0.053	0
475.5	0.055	0
476	0.056	0
476.5	0.057	0
477	0.058	0
477.5	0.059	0
478	0.06	0
478.5	0.061	0
479	0.063	0
479.5	0.064	0
480	0.065	0
480.5	0.066	0
481	0.068	0
481.5	0.069	0
482	0.07	0
482.5	0.071	0
483	0.073	0
483.5	0.074	0
484	0.075	0
484.5	0.077	0
485	0.078	0
485.5	0.079	0
486	0.081	0
486.5	0.082	0
487	0.084	0
487.5	0.085	0
488	0.087	0
488.5	0.088	0
489	0.09	0
489.5	0.092	0
490	0.094	0
490.5	0.097	0
491	0.099	0
491.5	0.102	0
492	0.105	0
492.5	0.108	0
493	0.11	0
493.5	0.113	0
494	0.117	0
494.5	0.12	0
495	0.124	0
495.5	0.128	0
496	0.132	0
496.5	0.136	0
497	0.14	0
497.5	0.144	0
498	0.149	0
498.5	0.153	0
499	0.158	0
499.5	0.163	0
500	0.168	0
500.5	0.173	0
501	0.178	0
501.5	0.184	0
502	0.189	0
502.5	0.195	0
503	0.2	0
503.5	0.206	0
504	0.212	0
504.5	0.217	0
505	0.223	0
505.5	0.229	0
506	0.234	0
506.5	0.24	0
507	0.245	0
507.5	0.25	0
508	0.256	0
508.5	0.261	0
509	0.265	0
509.5	0.27	0
510	0.274	0
510.5	0.279	0
511	0.283	0
511.5	0.287	0
512	0.29	0
512.5	0.293	0
513	0.296	0
513.5	0.299	0
514	0.302	0
514.5	0.304	0
515	0.306	0
515.5	0.308	0
516	0.31	0
516.5	0.311	0
517	0.312	0
517.5	0.313	0
518	0.314	0
518.5	0.315	0
519	0.315	0
519.5	0.316	0
520	0.316	0
520.5	0.317	0
521	0.317	0
521.5	0.318	0
522	0.318	0
522.5	0.319	0.001
523	0.32	0.001
523.5	0.321	0.001
524	0.322	0.001
524.5	0.324	0.001
525	0.326	0.001
525.5	0.328	0.001
526	0.33	0.001
526.5	0.333	0.001
527	0.336	0.001
527.5	0.339	0.001
528	0.343	0.001
528.5	0.348	0.002
529	0.353	0.002
529.5	0.359	0.002
530	0.365	0.002
530.5	0.371	0.002
531	0.379	0.003
531.5	0.386	0.003
532	0.394	0.003
532.5	0.403	0.004
533	0.413	0.004
533.5	0.423	0.004
534	0.434	0.005
534.5	0.445	0.005
535	0.457	0.006
535.5	0.47	0.007
536	0.483	0.008
536.5	0.496	0.008
537	0.51	0.01
537.5	0.525	0.01
538	0.54	0.012
538.5	0.556	0.013
539	0.572	0.015
539.5	0.589	0.016
540	0.606	0.018
540.5	0.623	0.02
541	0.642	0.022
541.5	0.66	0.024
542	0.678	0.027
542.5	0.697	0.03
543	0.715	0.034
543.5	0.734	0.037
544	0.753	0.041
544.5	0.772	0.046
545	0.79	0.051
545.5	0.809	0.056
546	0.827	0.062
546.5	0.845	0.068
547	0.862	0.074
547.5	0.879	0.083
548	0.895	0.091
548.5	0.91	0.099
549	0.925	0.109
549.5	0.938	0.118
550	0.95	0.13
550.5	0.961	0.141
551	0.971	0.155
551.5	0.979	0.168
552	0.986	0.183
552.5	0.991	0.199
553	0.994	0.214
553.5	0.996	0.233
554	0.996	0.251
554.5	0.995	0.27
555	0.991	0.286
555.5	0.986	0.306
556	0.979	0.328
556.5	0.97	0.349
557	0.96	0.372
557.5	0.948	0.393
558	0.934	0.418
558.5	0.918	0.441
559	0.901	0.466
559.5	0.883	0.49
560	0.863	0.512
560.5	0.842	0.538
561	0.82	0.563
561.5	0.797	0.591
562	0.773	0.613
562.5	0.748	0.64
563	0.723	0.664
563.5	0.698	0.685
564	0.672	0.709
564.5	0.646	0.734
565	0.62	0.758
565.5	0.595	0.78
566	0.569	0.801
566.5	0.544	0.822
567	0.519	0.843
567.5	0.494	0.86
568	0.47	0.877
568.5	0.446	0.893
569	0.423	0.907
569.5	0.401	0.923
570	0.379	0.938
570.5	0.358	0.95
571	0.337	0.958
571.5	0.318	0.966
572	0.299	0.972
572.5	0.281	0.98
573	0.264	0.991
573.5	0.247	0.992
574	0.231	0.994
574.5	0.217	0.998
575	0.203	0.999
575.5	0.19	1
576	0.178	0.999
576.5	0.166	0.996
577	0.155	0.99
577.5	0.144	0.988
578	0.134	0.986
578.5	0.126	0.98
579	0.117	0.972
579.5	0.11	0.966
580	0.102	0.956
580.5	0.095	0.947
581	0.089	0.936
581.5	0.083	0.93
582	0.077	0.921
582.5	0.072	0.909
583	0.067	0.894
583.5	0.062	0.882
584	0.058	0.87
584.5	0.054	0.86
585	0.05	0.85
585.5	0.046	0.838
586	0.043	0.827
586.5	0.04	0.811
587	0.037	0.797
587.5	0.034	0.781
588	0.031	0.768
588.5	0.029	0.754
589	0.027	0.743
589.5	0.024	0.724
590	0.023	0.711
590.5	0.022	0.698
591	0.02	0.69
591.5	0.019	0.675
592	0.018	0.665
592.5	0.016	0.651
593	0.015	0.641
593.5	0.014	0.622
594	0.013	0.609
594.5	0.012	0.597
595	0.011	0.589
595.5	0.01	0.575
596	0.01	0.565
596.5	0.009	0.553
597	0.008	0.546
597.5	0.007	0.531
598	0.007	0.523
598.5	0.007	0.512
599	0.006	0.504
599.5	0.006	0.491
600	0.005	0.481
600.5	0.005	0.472
601	0.005	0.466
601.5	0.005	0.455
602	0.004	0.45
602.5	0.004	0.44
603	0.004	0.431
603.5	0.004	0.426
604	0.004	0.418
604.5	0.003	0.41
605	0.003	0.404
605.5	0.003	0.4
606	0.003	0.393
606.5	0.003	0.386
607	0.003	0.381
607.5	0.002	0.375
608	0.002	0.371
608.5	0.002	0.365
609	0.002	0.359
609.5	0.002	0.356
610	0.002	0.353
610.5	0.002	0.349
611	0.002	0.344
611.5	0.002	0.341
612	0.002	0.337
612.5	0.002	0.333
613	0.002	0.329
613.5	0.002	0.327
614	0.002	0.325
614.5	0.002	0.321
615	0.002	0.317
615.5	0.002	0.315
616	0.002	0.311
616.5	0.001	0.312
617	0.001	0.31
617.5	0.001	0.307
618	0.001	0.304
618.5	0.002	0.301
619	0.002	0.299
619.5	0.001	0.296
620	0.002	0.293
620.5	0.002	0.291
621	0.002	0.29
621.5	0.002	0.288
622	0.001	0.284
622.5	0.002	0.283
623	0.002	0.281
623.5	0.001	0.278
624	0.002	0.275
624.5	0.002	0.272
625	0.002	0.271
625.5	0.002	0.269
626	0.002	0.266
626.5	0.002	0.262
627	0.002	0.26
627.5	0.002	0.257
628	0.002	0.254
628.5	0.002	0.252
629	0.002	0.248
629.5	0.002	0.247
630	0.002	0.243
630.5	0.001	0.24
631	0.001	0.238
631.5	0.001	0.234
632	0.001	0.232
632.5	0.001	0.228
633	0	0.227
633.5	0.001	0.224
634	0.001	0.22
634.5	0.001	0.216
635	0.001	0.213
635.5	0.001	0.212
636	0.001	0.209
636.5	0.001	0.205
637	0.001	0.202
637.5	0.001	0.197
638	0.001	0.193
638.5	0.001	0.192
639	0.001	0.189
639.5	0.001	0.186
640	0.001	0.181
640.5	0.001	0.179
641	0.001	0.177
641.5	0.001	0.173
642	0	0.17
642.5	0	0.167
643	0	0.164
643.5	0	0.16
644	0	0.158
644.5	0	0.155
645	0	0.154
645.5	0	0.151
646	0	0.148
646.5	0	0.146
647	0	0.142
647.5	0	0.139
648	0	0.136
648.5	0	0.135
649	0	0.132
649.5	0	0.129
650	0	0.127
650.5	0	0.124
651	0	0.121
651.5	0	0.12
652	0	0.117
652.5	0	0.113
653	0	0.112
653.5	0	0.11
654	0	0.109
654.5	0	0.107
655	0	0.105
655.5	0	0.102
656	0	0.101
656.5	0	0.098
657	0	0.096
657.5	0	0.094
658	0	0.092
658.5	0	0.091
659	0	0.089
659.5	0	0.087
660	0	0.086
660.5	0	0.084
661	0	0.082
661.5	0	0.081
662	0	0.079
662.5	0	0.078
663	0	0.077
663.5	0	0.076
664	0	0.074
664.5	0	0.073
665	0	0.071
665.5	0	0.07
666	0	0.068
666.5	0	0.068
667	0	0.066
667.5	0	0.065
668	0	0.065
668.5	0	0.064
669	0	0.062
669.5	0	0.061
670	0	0.059
670.5	0	0.059
671	0	0.058
671.5	0	0.058
672	0	0.056
672.5	0	0.055
673	0	0.055
673.5	0	0.055
674	0	0.053
674.5	0	0.053
675	0	0.052
675.5	0	0.051
676	0	0.05
676.5	0	0.05
677	0	0.049
677.5	0	0.048
678	0	0.047
678.5	0	0.047
679	0	0.046
679.5	0	0.046
680	0	0.046
680.5	0	0.044
681	0	0.044
681.5	0	0.043
682	0	0.043
682.5	0	0.042
683	0	0.042
683.5	0	0.041
684	0	0.041
684.5	0	0.04
685	0	0.039
685.5	0	0.039
686	0	0.039
686.5	0	0.038
687	0	0.038
687.5	0	0.037
688	0	0.037
688.5	0	0.036
689	0	0.036
689.5	0	0.036
690	0	0.035
690.5	0	0.034
691	0	0.034
691.5	0	0.033
692	0	0.033
692.5	0	0.032
693	0	0.032
693.5	0	0.031
694	0	0.031
694.5	0	0.031
695	0	0.03
695.5	0	0.03
696	0	0.03
696.5	0	0.029
697	0	0.029
697.5	0	0.028
698	0	0.029
698.5	0	0.027
699	0	0.027
699.5	0	0.027
700	0	0.027
700.5	0	0.026
701	0	0.026
701.5	0	0.025
702	0	0.025
702.5	0	0.025
703	0	0.024
703.5	0	0.024
704	0	0.024
704.5	0	0.023
705	0	0.023
705.5	0	0.022
706	0	0.022
706.5	0	0.022
707	0	0.021
707.5	0	0.021
708	0	0.021
708.5	0	0.02
709	0	0.02
709.5	0	0.02
710	0	0.02
710.5	0	0.02
711	0	0.019
711.5	0	0.019
712	0	0.018
712.5	0	0.018
713	0	0.017
713.5	0	0.017
714	0	0.017
714.5	0	0.017
715	0	0.017
715.5	0	0.016
716	0	0.016
716.5	0	0.016
717	0	0.015
717.5	0	0.015
718	0	0.015
718.5	0	0.014
719	0	0.015
719.5	0	0.014
720	0	0.014
720.5	0	0.014
721	0	0.014
721.5	0	0.013
722	0	0.013
722.5	0	0.013
723	0	0.013
723.5	0	0.012
724	0	0.012
724.5	0	0.012
725	0	0.011
725.5	0	0.012
726	0	0.012
726.5	0	0.011
727	0	0.011
727.5	0	0.011
728	0	0.011
728.5	0	0.011
729	0	0.01
729.5	0	0.01
730	0	0.01
730.5	0	0.01
731	0	0.01
731.5	0	0.01
732	0	0.009
732.5	0	0.009
733	0	0.009
733.5	0	0.009
734	0	0.009
734.5	0	0.008
735	0	0.009
735.5	0	0.009
736	0	0.008
736.5	0	0.008
737	0	0.008
737.5	0	0.008
738	0	0.008
738.5	0	0.008
739	0	0.007
739.5	0	0.007
740	0	0.007
740.5	0	0.007
741	0	0.007
741.5	0	0.007
742	0	0.007
742.5	0	0.007
743	0	0.006
743.5	0	0.007
744	0	0.007
744.5	0	0.006
745	0	0.006
745.5	0	0.006
746	0	0.006
746.5	0	0.006
747	0	0.006
747.5	0	0.006
748	0	0.006
748.5	0	0.006
749	0	0.006
749.5	0	0.006
750	0	0.005
750.5	0	0.005
751	0	0.005
751.5	0	0.005
752	0	0.005
752.5	0	0.005
753	0	0.005
753.5	0	0.004
754	0	0.004
754.5	0	0.004
755	0	0.004
755.5	0	0.004
756	0	0.005
756.5	0	0.004
757	0	0.004
757.5	0	0.004
758	0	0.004
758.5	0	0.004
759	0	0.004
759.5	0	0.004
760	0	0.004
760.5	0	0.004
761	0	0.004
761.5	0	0.004
762	0	0.004
762.5	0	0.003
763	0	0.004
763.5	0	0.004
764	0	0.003
764.5	0	0.004
765	0	0.003
765.5	0	0.003
766	0	0.003
766.5	0	0.004
767	0	0.004
767.5	0	0.003
768	0	0.003
768.5	0	0.003
769	0	0.003
769.5	0	0.003
770	0	0.003
770.5	0	0.003
771	0	0.003
771.5	0	0.003
772	0	0.003
772.5	0	0.003
773	0	0.003
773.5	0	0.003
774	0	0.003
774.5	0	0.003
775	0	0.003
775.5	0	0.003
776	0	0.002
776.5	0	0.003
777	0	0.003
777.5	0	0.003
778	0	0.003
778.5	0	0.003
779	0	0.003
779.5	0	0.002
780	0	0.003
780.5	0	0.003
781	0	0.002
781.5	0	0.002
782	0	0.002
782.5	0	0.002
783	0	0.002
783.5	0	0.002
784	0	0.002
784.5	0	0.002
785	0	0.002
785.5	0	0.002
786	0	0.002
786.5	0	0.002
787	0	0.002
787.5	0	0.002
788	0	0.002
788.5	0	0.002
789	0	0.002
789.5	0	0.002
790	0	0.002
790.5	0	0.002
791	0	0.002
791.5	0	0.002
792	0	0.002
792.5	0	0.002
793	0	0.002
793.5	0	0.001
794	0	0.002
794.5	0	0.002
795	0	0.002
795.5	0	0.001
796	0	0.001
796.5	0	0.002
797	0	0.002
797.5	0	0.002
798	0	0.002
798.5	0	0.001
799	0	0.001
799.5	0	0.001
800	0	0.002
800.5	0	0.001
801	0	0.002
801.5	0	0.001
802	0	0.002
802.5	0	0.001
803	0	0.001
803.5	0	0.001
804	0	0.001
804.5	0	0.001
805	0	0.001
805.5	0	0.001
806	0	0.001
806.5	0	0.001
807	0	0.001
807.5	0	0.001
808	0	0.001
808.5	0	0.001
809	0	0.001
809.5	0	0.001
810	0	0.001
810.5	0	0.001
811	0	0.001
811.5	0	0.001
812	0	0.001
812.5	0	0.001
813	0	0.001
813.5	0	0.001
814	0	0.001
814.5	0	0.001
815	0	0.001
815.5	0	0.001
816	0	0.001
816.5	0	0.001
817	0	0.001
817.5	0	0.001
818	0	0.001
818.5	0	0.001
819	0	0.001
819.5	0	0.001
820	0	0.001
820.5	0	0.001
821	0	0.001
821.5	0	0.001
822	0	0.001
822.5	0	0.001
823	0	0.001
823.5	0	0.001
824	0	0.001
824.5	0	0.001
825	0	0.001
825.5	0	0.001
826	0	0.001
826.5	0	0.001
827	0	0.001
827.5	0	0.001
828	0	0.001
828.5	0	0.001
829	0	0.001
829.5	0	0.001
830	0	0
830.5	0	0.001
831	0	0.001
831.5	0	0.001
832	0	0.001
832.5	0	0.001
833	0	0.001
833.5	0	0.001
834	0	0.001
834.5	0	0.001
835	0	0.001
835.5	0	0.001
836	0	0.001
836.5	0	0.001
837	0	0.001
837.5	0	0.001
838	0	0
838.5	0	0.001
839	0	0.001
839.5	0	0
840	0	0.001
840.5	0	0
841	0	0.001
841.5	0	0.001
842	0	0
842.5	0	0.001
843	0	0.001
843.5	0	0.001
844	0	0.001
844.5	0	0.001
845	0	0
845.5	0	0.001
846	0	0
846.5	0	0.001
847	0	0.001
847.5	0	0
848	0	0
848.5	0	0
849	0	0.001
849.5	0	0.001
850	0	0
